Time,PV
11/21/2025 8:30,-132.0085449
11/21/2025 8:45,-131.0842285
11/21/2025 9:00,-129.161377
11/21/2025 9:15,-131.4035645
11/21/2025 9:30,-138.5853271
11/21/2025 9:45,-145.5380859
11/21/2025 10:00,-136.1486816
11/21/2025 10:15,-124.477417
11/21/2025 10:30,-115.1621094
11/21/2025 10:45,-116.7558594
11/21/2025 11:00,-110.4354248
11/21/2025 11:15,-104.6958008
11/21/2025 11:30,-90.12731934
11/21/2025 11:45,-99.41223145
11/21/2025 12:00,-95.11120605
11/21/2025 12:15,-79.04016113
11/21/2025 12:30,-77.6192627
11/21/2025 12:45,-81.56286621
11/21/2025 13:00,-82.37365723
11/21/2025 13:15,-71.99194336
11/21/2025 13:30,-70.99157715
11/21/2025 13:45,-79.80615234
11/21/2025 14:00,-74.57519531
11/21/2025 14:15,-73.49377441
11/21/2025 14:30,-71.67407227
11/21/2025 14:45,-68.04602051
11/21/2025 15:00,-76.84619141
11/21/2025 15:15,-56.53137207
11/21/2025 15:30,-44.88061523
11/21/2025 15:45,-56.92785645
11/21/2025 16:00,-50.92871094
11/21/2025 16:15,-66.88439941
11/21/2025 16:30,-46.14794922
11/21/2025 16:45,-35.35290527
11/21/2025 17:00,-44.64404297
11/21/2025 17:15,-68.51489258
11/21/2025 17:30,-59.03039551
11/21/2025 17:45,-68.8873291
11/21/2025 18:00,-54.66918945
11/21/2025 18:15,-53.04125977
11/21/2025 18:30,-61.7590332
11/21/2025 18:45,-70.34875488
11/21/2025 19:00,-71.61230469
11/21/2025 19:15,-55.47485352
11/21/2025 19:30,-44.1270752
11/21/2025 19:45,-59.94226074
11/21/2025 20:00,-59.36889648
11/21/2025 20:15,-44.07189941
11/21/2025 20:30,-56.45715332
11/21/2025 20:45,-72.4354248
11/21/2025 21:00,-33.69421387
11/21/2025 21:15,-43.22827148
11/21/2025 21:30,-49.64025879
11/21/2025 21:45,-38.22485352
11/21/2025 22:00,-57.30957031
11/21/2025 22:15,-61.25170898
11/21/2025 22:30,-61.25170898
11/21/2025 22:45,-61.25170898
11/21/2025 23:00,-61.25170898
11/21/2025 23:15,-61.25170898
11/21/2025 23:30,-61.25170898
11/21/2025 23:45,-61.25170898
11/22/2025 0:00,-61.25170898
11/22/2025 0:15,-61.25170898
11/22/2025 0:30,-35.9387207
11/22/2025 0:45,-28.14318848
11/22/2025 1:00,-30.49157715
11/22/2025 1:15,-29.49707031
11/22/2025 1:30,-54.46618652
11/22/2025 1:45,-57.69018555
11/22/2025 2:00,-57.69018555
11/22/2025 2:15,-57.69018555
11/22/2025 2:30,-57.69018555
11/22/2025 2:45,-57.69018555
11/22/2025 3:00,-57.69018555
11/22/2025 3:15,-57.69018555
11/22/2025 3:30,-57.69018555
11/22/2025 3:45,-57.69018555
11/22/2025 4:00,-57.69018555
11/22/2025 4:15,-57.69018555
11/22/2025 4:30,-57.69018555
11/22/2025 4:45,-57.69018555
11/22/2025 5:00,-57.69018555
11/22/2025 5:15,-57.69018555
11/22/2025 5:30,-57.69018555
11/22/2025 5:45,-57.69018555
11/22/2025 6:00,-57.69018555
11/22/2025 6:15,-57.69018555
11/22/2025 6:30,-57.69018555
11/22/2025 6:45,-57.69018555
11/22/2025 7:00,-57.69018555
11/22/2025 7:15,-57.69018555
11/22/2025 7:30,-57.69018555
11/22/2025 7:45,-57.69018555
11/22/2025 8:00,-57.69018555
11/22/2025 8:15,-57.69018555
11/22/2025 8:30,-57.69018555
11/22/2025 8:45,-57.69018555
11/22/2025 9:00,-57.69018555
11/22/2025 9:15,-57.69018555
11/22/2025 9:30,-57.69018555
11/22/2025 9:45,-57.69018555
11/22/2025 10:00,-57.69018555
11/22/2025 10:15,-57.69018555
11/22/2025 10:30,-57.69018555
11/22/2025 10:45,-57.69018555
11/22/2025 11:00,-57.69018555
11/22/2025 11:15,-57.69018555
11/22/2025 11:30,-57.69018555
11/22/2025 11:45,-57.69018555
11/22/2025 12:00,-57.69018555
11/22/2025 12:15,-57.69018555
11/22/2025 12:30,-57.69018555
11/22/2025 12:45,-57.69018555
11/22/2025 13:00,-57.69018555
11/22/2025 13:15,-57.69018555
11/22/2025 13:30,-57.69018555
11/22/2025 13:45,-57.69018555
11/22/2025 14:00,-57.69018555
11/22/2025 14:15,-57.69018555
11/22/2025 14:30,-57.69018555
11/22/2025 14:45,-57.69018555
11/22/2025 15:00,-57.69018555
11/22/2025 15:15,-57.69018555
11/22/2025 15:30,-57.69018555
11/22/2025 15:45,-57.69018555
11/22/2025 16:00,-57.69018555
11/22/2025 16:15,-57.69018555
11/22/2025 16:30,-57.69018555
11/22/2025 16:45,-57.69018555
11/22/2025 17:00,-57.69018555
11/22/2025 17:15,-57.69018555
11/22/2025 17:30,-57.69018555
11/22/2025 17:45,-57.69018555
11/22/2025 18:00,-57.69018555
11/22/2025 18:15,-57.69018555
11/22/2025 18:30,-57.69018555
11/22/2025 18:45,-41.48803711
11/22/2025 19:00,-34.15539551
11/22/2025 19:15,-47.44067383
11/22/2025 19:30,-41.42675781
11/22/2025 19:45,-32.90625
11/22/2025 20:00,-46.94348145
11/22/2025 20:15,-36.98742676
11/22/2025 20:30,-46.34399414
11/22/2025 20:45,-30.77844238
11/22/2025 21:00,-46.9440918
11/22/2025 21:15,-34.57641602
11/22/2025 21:30,-34.11035156
11/22/2025 21:45,-39.55212402
11/22/2025 22:00,-38.27807617
11/22/2025 22:15,-53.390625
11/22/2025 22:30,-42.83740234
11/22/2025 22:45,-54.92285156
11/22/2025 23:00,-41.17932129
11/22/2025 23:15,-33.97399902
11/22/2025 23:30,-39.86608887
11/22/2025 23:45,-45.33642578
11/23/2025 0:00,-59.65527344
11/23/2025 0:15,-36.7199707
11/23/2025 0:30,-48.75805664
11/23/2025 0:45,-60.5604248
11/23/2025 1:00,-20.04431152
11/23/2025 1:15,-65.10925293
11/23/2025 1:30,-47.47692871
11/23/2025 1:45,-32.33630371
11/23/2025 2:00,-32.98522949
11/23/2025 2:15,-39.57495117
11/23/2025 2:30,-31.73449707
11/23/2025 2:45,-39.77941895
11/23/2025 3:00,-20.26513672
11/23/2025 3:15,-38.75878906
11/23/2025 3:30,-26.09631348
11/23/2025 3:45,-41.46044922
11/23/2025 4:00,-52.77050781
11/23/2025 4:15,-16.82556152
11/23/2025 4:30,-47.21032715
11/23/2025 4:45,-38.58740234
11/23/2025 5:00,-50.90393066
11/23/2025 5:15,-6.743286133
11/23/2025 5:30,-17.43847656
11/23/2025 5:45,-53.9765625
11/23/2025 6:00,-46.23950195
11/23/2025 6:15,-20.76708984
11/23/2025 6:30,-12.68334961
11/23/2025 6:45,-18.15869141
11/23/2025 7:00,-12.92211914
11/23/2025 7:15,-28.23852539
11/23/2025 7:30,-11.26855469
11/23/2025 7:45,-14.9979248
11/23/2025 8:00,-15.4967041
11/23/2025 8:15,-31.01782227
11/23/2025 8:30,-0.50793457
11/23/2025 8:45,-34.08068848
11/23/2025 9:00,-33.37536621
11/23/2025 9:15,-16.06140137
11/23/2025 9:30,-63.78918457
11/23/2025 9:45,-51.22741699
11/23/2025 10:00,-46.24450684
11/23/2025 10:15,-22.89440918
11/23/2025 10:30,-45.81408691
11/23/2025 10:45,-11.72290039
11/23/2025 11:00,-31.17102051
11/23/2025 11:15,-30.18469238
11/23/2025 11:30,-15.46350098
11/23/2025 11:45,-44.00195313
11/23/2025 12:00,-17.02490234
11/23/2025 12:15,11.32080078
11/23/2025 12:30,-29.23327637
11/23/2025 12:45,-27.84130859
11/23/2025 13:00,-16.22265625
11/23/2025 13:15,-26.45666504
11/23/2025 13:30,-38.30981445
11/23/2025 13:45,-47.07666016
11/23/2025 14:00,-32.41040039
11/23/2025 14:15,-53.30761719
11/23/2025 14:30,-16.86694336
11/23/2025 14:45,-44.24121094
11/23/2025 15:00,-52.40917969
11/23/2025 15:15,-41.6171875
11/23/2025 15:30,-45.43811035
11/23/2025 15:45,-51.31640625
11/23/2025 16:00,-101.5227051
11/23/2025 16:15,-74.79956055
11/23/2025 16:30,-51.71411133
11/23/2025 16:45,-60.3338623
11/23/2025 17:00,-70.37731934
11/23/2025 17:15,-65.23706055
11/23/2025 17:30,-53.38500977
11/23/2025 17:45,-57.60437012
11/23/2025 18:00,-48.55712891
11/23/2025 18:15,-12.74365234
11/23/2025 18:30,-69.49816895
11/23/2025 18:45,-72.08886719
11/23/2025 19:00,-51.60974121
11/23/2025 19:15,-70.02319336
11/23/2025 19:30,-87.77197266
11/23/2025 19:45,-66.05749512
11/23/2025 20:00,-45.72473145
11/23/2025 20:15,-12.61694336
11/23/2025 20:30,-37.06811523
11/23/2025 20:45,-67.66015625
11/23/2025 21:00,-46.97241211
11/23/2025 21:15,0.895629883
11/23/2025 21:30,-43.78820801
11/23/2025 21:45,4.679321289
11/23/2025 22:00,-50.63952637
11/23/2025 22:15,-51.13366699
11/23/2025 22:30,-18.39257813
11/23/2025 22:45,-29.1595459
11/23/2025 23:00,-39.8470459
11/23/2025 23:15,-46.95397949
11/23/2025 23:30,-84.65991211
11/23/2025 23:45,-35.98547363
11/24/2025 0:00,-40.7869873
11/24/2025 0:15,-36.65136719
11/24/2025 0:30,-44.48254395
11/24/2025 0:45,-32.60498047
11/24/2025 1:00,-56.71679688
11/24/2025 1:15,-46.54943848
11/24/2025 1:30,-28.32897949
11/24/2025 1:45,-35.06152344
11/24/2025 2:00,-59.65856934
11/24/2025 2:15,-60.84191895
11/24/2025 2:30,-5.512084961
11/24/2025 2:45,-18.99450684
11/24/2025 3:00,-12.41552734
11/24/2025 3:15,-29.18847656
11/24/2025 3:30,-47.75280762
11/24/2025 3:45,-49.77941895
11/24/2025 4:00,-43.32495117
11/24/2025 4:15,-18.7512207
11/24/2025 4:30,0.429321289
11/24/2025 4:45,-28.40844727
11/24/2025 5:00,-38.47937012
11/24/2025 5:15,-8.19921875
11/24/2025 5:30,-10.39172363
11/24/2025 5:45,-4.254516602
11/24/2025 6:00,-24.35754395
11/24/2025 6:15,-16.34692383
11/24/2025 6:30,-13.0916748
11/24/2025 6:45,-26.41210938
11/24/2025 7:00,-8.356811523
11/24/2025 7:15,26.32128906
11/24/2025 7:30,-19.31628418
11/24/2025 7:45,-26.54333496
11/24/2025 8:00,4.480224609
11/24/2025 8:15,-28.18212891
11/24/2025 8:30,-9.252075195
11/24/2025 8:45,5.960571289
11/24/2025 9:00,-28.34558105
11/24/2025 9:15,-25.77380371
11/24/2025 9:30,-15.54016113
11/24/2025 9:45,-19.53918457
11/24/2025 10:00,41.34777832
11/24/2025 10:15,46.81420898
11/24/2025 10:30,13.12597656
11/24/2025 10:45,82.55114746
11/24/2025 11:00,2.364013672
11/24/2025 11:15,18.23803711
11/24/2025 11:30,18.43273926
11/24/2025 11:45,41.28759766
11/24/2025 12:00,22.87145996
11/24/2025 12:15,46.70666504
11/24/2025 12:30,-16.06433105
11/24/2025 12:45,56.89086914
11/24/2025 13:00,88.06896973
11/24/2025 13:15,6.62890625
11/24/2025 13:30,51.37609863
11/24/2025 13:45,38.04699707
11/24/2025 14:00,-7.630981445
11/24/2025 14:15,64.23010254
11/24/2025 14:30,9.154541016
11/24/2025 14:45,29.57202148
11/24/2025 15:00,4.198852539
11/24/2025 15:15,69.23864746
11/24/2025 15:30,59.20483398
11/24/2025 15:45,58.03662109
11/24/2025 16:00,24.96240234
11/24/2025 16:15,31.52709961
11/24/2025 16:30,30.54553223
11/24/2025 16:45,40.68725586
11/24/2025 17:00,9.434204102
11/24/2025 17:15,46.96337891
11/24/2025 17:30,74.01538086
11/24/2025 17:45,-12.38806152
11/24/2025 18:00,36.45715332
11/24/2025 18:15,26.11425781
11/24/2025 18:30,4.596191406
11/24/2025 18:45,64.15539551
11/24/2025 19:00,66.53942871
11/24/2025 19:15,40.02270508
11/24/2025 19:30,56.67614746
11/24/2025 19:45,62.6739502
11/24/2025 20:00,36.89672852
11/24/2025 20:15,67.39025879
11/24/2025 20:30,56.36694336
11/24/2025 20:45,55.77905273
11/24/2025 21:00,54.18994141
11/24/2025 21:15,50.54663086
11/24/2025 21:30,57.54296875
11/24/2025 21:45,31.2088623
11/24/2025 22:00,45.27246094
11/24/2025 22:15,47.41833496
11/24/2025 22:30,98.03320313
11/24/2025 22:45,106.5114746
11/24/2025 23:00,45.68823242
11/24/2025 23:15,103.3291016
11/24/2025 23:30,83.90380859
11/24/2025 23:45,67.55493164
11/25/2025 0:00,77.25195313
11/25/2025 0:15,98.00048828
11/25/2025 0:30,75.99023438
11/25/2025 0:45,59.33410645
11/25/2025 1:00,74.83508301
11/25/2025 1:15,100.8465576
11/25/2025 1:30,95.42370605
11/25/2025 1:45,126.5964355
11/25/2025 2:00,81.94177246
11/25/2025 2:15,115.9476318
11/25/2025 2:30,70.0333252
11/25/2025 2:45,94.15319824
11/25/2025 3:00,103.3931885
11/25/2025 3:15,36.96240234
11/25/2025 3:30,79.27880859
11/25/2025 3:45,91.03491211
11/25/2025 4:00,107.9838867
11/25/2025 4:15,121.9085693
11/25/2025 4:30,111.5871582
11/25/2025 4:45,99.95800781
11/25/2025 5:00,161.3807373
11/25/2025 5:15,75.1595459
11/25/2025 5:30,114.7700195
11/25/2025 5:45,135.395752
11/25/2025 6:00,125.5172119
11/25/2025 6:15,151.1196289
11/25/2025 6:30,167.9407959
11/25/2025 6:45,123.1942139
11/25/2025 7:00,139.5454102
11/25/2025 7:15,97.15563965
11/25/2025 7:30,118.0343018
11/25/2025 7:45,146.8151855
11/25/2025 8:00,138.605835
11/25/2025 8:15,170.5670166
11/25/2025 8:30,151.3763428
11/25/2025 8:45,174.4761963
11/25/2025 9:00,161.8244629
11/25/2025 9:15,108.5070801
11/25/2025 9:30,211.2227783
11/25/2025 9:45,157.3199463
11/25/2025 10:00,186.4147949
11/25/2025 10:15,191.1397705
11/25/2025 10:30,173.3709717
11/25/2025 10:45,185.9614258
11/25/2025 11:00,221.5802002
11/25/2025 11:15,133.9147949
11/25/2025 11:30,189.3999023
11/25/2025 11:45,228.8343506
11/25/2025 12:00,218.9575195
11/25/2025 12:15,240.4884033
11/25/2025 12:30,190.3250732
11/25/2025 12:45,219.4519043
11/25/2025 13:00,213.7043457
11/25/2025 13:15,179.3193359
11/25/2025 13:30,211.8824463
11/25/2025 13:45,221.6817627
11/25/2025 14:00,230.1776123
11/25/2025 14:15,200.9492188
11/25/2025 14:30,226.8299561
11/25/2025 14:45,204.6210938
11/25/2025 15:00,251.0267334
11/25/2025 15:15,230.7355957
11/25/2025 15:30,185.3374023
11/25/2025 15:45,207.5002441
11/25/2025 16:00,193.467041
11/25/2025 16:15,139.9073486
11/25/2025 16:30,229.0716553
11/25/2025 16:45,243.8659668
11/25/2025 17:00,227.0848389
11/25/2025 17:15,158.3297119
11/25/2025 17:30,250.2235107
11/25/2025 17:45,279.9080811
11/25/2025 18:00,241.6899414
11/25/2025 18:15,231.8728027
11/25/2025 18:30,221.1815186
11/25/2025 18:45,265.755127
11/25/2025 19:00,252.3061523
11/25/2025 19:15,256.5808105
11/25/2025 19:30,263.7404785
11/25/2025 19:45,250.3170166
11/25/2025 20:00,250.2279053
11/25/2025 20:15,253.9912109
11/25/2025 20:30,281.583252
11/25/2025 20:45,229.5841064
11/25/2025 21:00,278.307251
11/25/2025 21:15,256.333252
11/25/2025 21:30,261.0175781
11/25/2025 21:45,293.4306641
11/25/2025 22:00,298.7402344
11/25/2025 22:15,312.8861084
11/25/2025 22:30,229.0172119
11/25/2025 22:45,286.2036133
11/25/2025 23:00,270.6768799
11/25/2025 23:15,291.2106934
11/25/2025 23:30,329.5198975
11/25/2025 23:45,274.5249023
11/26/2025 0:00,291.4000244
11/26/2025 0:15,304.1088867
11/26/2025 0:30,278.1657715
11/26/2025 0:45,285.732666
11/26/2025 1:00,277.8934326
11/26/2025 1:15,284.9326172
11/26/2025 1:30,314.0109863
11/26/2025 1:45,290.1099854
11/26/2025 2:00,271.8511963
11/26/2025 2:15,268.37854
11/26/2025 2:30,283.675293
11/26/2025 2:45,278.4475098
11/26/2025 3:00,282.9421387
11/26/2025 3:15,375.8104248
11/26/2025 3:30,324.7081299
11/26/2025 3:45,348.4769287
11/26/2025 4:00,293.9050293
11/26/2025 4:15,343.6357422
11/26/2025 4:30,319.6405029
11/26/2025 4:45,290.6062012
11/26/2025 5:00,303.1394043
11/26/2025 5:15,366.0964355
11/26/2025 5:30,356.3446045
11/26/2025 5:45,347.8458252
11/26/2025 6:00,366.1710205
11/26/2025 6:15,363.5854492
11/26/2025 6:30,319.4129639
11/26/2025 6:45,403.9567871
11/26/2025 7:00,359.0518799
11/26/2025 7:15,314.8596191
11/26/2025 7:30,343.996582
11/26/2025 7:45,390.7890625
11/26/2025 8:00,418.4516602
11/26/2025 8:15,347.5946045
11/26/2025 8:30,348.4648438
11/26/2025 8:45,366.7927246
11/26/2025 9:00,411.0612793
11/26/2025 9:15,422.2047119
11/26/2025 9:30,453.0531006
11/26/2025 9:45,485.6320801
11/26/2025 10:00,420.439209
11/26/2025 10:15,448.0344238
11/26/2025 10:30,425.7941895
11/26/2025 10:45,454.8349609
11/26/2025 11:00,467.3763428
11/26/2025 11:15,401.1702881
11/26/2025 11:30,499.6843262
11/26/2025 11:45,451.1386719
11/26/2025 12:00,460.1114502
11/26/2025 12:15,465.685791
11/26/2025 12:30,418.7807617
11/26/2025 12:45,461.414917
11/26/2025 13:00,513.9696045
11/26/2025 13:15,485.4327393
11/26/2025 13:30,576.8483887
11/26/2025 13:45,529.2626953
11/26/2025 14:00,476.4249268
11/26/2025 14:15,424.9688721
11/26/2025 14:30,460.9858398
11/26/2025 14:45,460.8796387
11/26/2025 15:00,493.9824219
11/26/2025 15:15,455.2199707
11/26/2025 15:30,490.9891357
11/26/2025 15:45,463.3482666
11/26/2025 16:00,536.9112549
11/26/2025 16:15,497.2611084
11/26/2025 16:30,483.1810303
11/26/2025 16:45,511.2070313
11/26/2025 17:00,449.7574463
11/26/2025 17:15,475.9106445
11/26/2025 17:30,448.9797363
11/26/2025 17:45,469.6668701
11/26/2025 18:00,531.9016113
11/26/2025 18:15,524.706543
11/26/2025 18:30,484.8006592
11/26/2025 18:45,476.9711914
11/26/2025 19:00,545.7015381
11/26/2025 19:15,475.9150391
11/26/2025 19:30,494.2524414
11/26/2025 19:45,475.8742676
11/26/2025 20:00,561.5571289
11/26/2025 20:15,537.3843994
11/26/2025 20:30,527.6230469
11/26/2025 20:45,478.21521
11/26/2025 21:00,494.4876709
11/26/2025 21:15,438.2617188
11/26/2025 21:30,533.175293
11/26/2025 21:45,492.0032959
11/26/2025 22:00,523.0340576
11/26/2025 22:15,517.1231689
11/26/2025 22:30,539.888916
11/26/2025 22:45,549.7381592
11/26/2025 23:00,546.8720703
11/26/2025 23:15,577.1346436
11/26/2025 23:30,516.77771
11/26/2025 23:45,615.6624756
11/27/2025 0:00,544.1496582
11/27/2025 0:15,530.3719482
11/27/2025 0:30,529.8126221
11/27/2025 0:45,554.4973145
11/27/2025 1:00,614.5263062
11/27/2025 1:15,583.5257568
11/27/2025 1:30,607.8200684
11/27/2025 1:45,629.3547974
11/27/2025 2:00,675.8977661
11/27/2025 2:15,607.9742432
11/27/2025 2:30,571.9926758
11/27/2025 2:45,598.3797607
11/27/2025 3:00,589.7008057
11/27/2025 3:15,513.336792
11/27/2025 3:30,616.9926758
11/27/2025 3:45,607.9975586
11/27/2025 4:00,608.5625
11/27/2025 4:15,617.0419312
11/27/2025 4:30,622.8995361
11/27/2025 4:45,631.8375244
11/27/2025 5:00,602.3459473
11/27/2025 5:15,681.6627808
11/27/2025 5:30,604.5031738
11/27/2025 5:45,651.2057495
11/27/2025 6:00,638.6403809
11/27/2025 6:15,620.2246094
11/27/2025 6:30,648.204834
11/27/2025 6:45,648.1897583
11/27/2025 7:00,632.8101807
11/27/2025 7:15,662.5984497
11/27/2025 7:30,665.5284424
11/27/2025 7:45,663.8899536
11/27/2025 8:00,621.6312256
11/27/2025 8:15,670.9257813
11/27/2025 8:30,699.5444336
11/27/2025 8:45,680.1146851
11/27/2025 9:00,631.6437988
11/27/2025 9:15,625.0822754
11/27/2025 9:30,619.8766479
11/27/2025 9:45,628.5898438
11/27/2025 10:00,683.2407227
11/27/2025 10:15,674.135376
11/27/2025 10:30,700.7537842
11/27/2025 10:45,649.6119385
11/27/2025 11:00,712.5674438
11/27/2025 11:15,608.5183105
11/27/2025 11:30,679.3328247
11/27/2025 11:45,629.4237671
11/27/2025 12:00,634.2870483
11/27/2025 12:15,703.8746948
11/27/2025 12:30,763.8788452
11/27/2025 12:45,645.574646
11/27/2025 13:00,630.5070801
11/27/2025 13:15,702.7105103
11/27/2025 13:30,644.3453979
11/27/2025 13:45,693.2565918
11/27/2025 14:00,683.4472046
11/27/2025 14:15,712.2402344
11/27/2025 14:30,714.4309082
11/27/2025 14:45,713.1670532
11/27/2025 15:00,628.0407715
11/27/2025 15:15,727.8950806
11/27/2025 15:30,659.3279419
11/27/2025 15:45,723.8673706
11/27/2025 16:00,712.5592651
11/27/2025 16:15,797.3258057
11/27/2025 16:30,788.87323
11/27/2025 16:45,772.8710327
11/27/2025 17:00,765.0692139
11/27/2025 17:15,782.8150635
11/27/2025 17:30,744.8928223
11/27/2025 17:45,716.3631592
11/27/2025 18:00,728.3863525
11/27/2025 18:15,755.9752197
11/27/2025 18:30,738.3251343
11/27/2025 18:45,724.4018555
11/27/2025 19:00,813.9596558
11/27/2025 19:15,766.0565186
11/27/2025 19:30,767.944519
11/27/2025 19:45,777.8119507
11/27/2025 20:00,747.8171997
11/27/2025 20:15,806.6585083
11/27/2025 20:30,813.1593018
11/27/2025 20:45,794.2918701
11/27/2025 21:00,763.736084
11/27/2025 21:15,854.3660278
11/27/2025 21:30,819.6558228
11/27/2025 21:45,764.5952759
11/27/2025 22:00,813.6668701
11/27/2025 22:15,813.5511475
11/27/2025 22:30,842.9908447
11/27/2025 22:45,842.0366211
11/27/2025 23:00,844.5357056
11/27/2025 23:15,832.4401245
11/27/2025 23:30,864.4057007
11/27/2025 23:45,810.9470215
11/28/2025 0:00,854.5043335
11/28/2025 0:15,873.3883057
11/28/2025 0:30,816.6414185
11/28/2025 0:45,886.1294556
11/28/2025 1:00,852.1095581
11/28/2025 1:15,900.1567383
11/28/2025 1:30,832.894165
11/28/2025 1:45,923.7041626
11/28/2025 2:00,863.8556519
11/28/2025 2:15,846.3671265
11/28/2025 2:30,836.2403564
11/28/2025 2:45,899.0514526
11/28/2025 3:00,878.2594604
11/28/2025 3:15,906.4414063
11/28/2025 3:30,968.5623779
11/28/2025 3:45,894.9926147
11/28/2025 4:00,912.3157349
11/28/2025 4:15,867.8919067
11/28/2025 4:30,845.3119507
11/28/2025 4:45,912.2270508
11/28/2025 5:00,923.5585938
11/28/2025 5:15,916.7442627
11/28/2025 5:30,967.6286621
11/28/2025 5:45,934.0664673
11/28/2025 6:00,978.5166016
11/28/2025 6:15,957.5754395
11/28/2025 6:30,975.2177734
11/28/2025 6:45,946.4623413
11/28/2025 7:00,956.008728
11/28/2025 7:15,938.465332
11/28/2025 7:30,983.7816772
11/28/2025 7:45,974.9262695
11/28/2025 8:00,962.3514404
11/28/2025 8:15,973.3121948
11/28/2025 8:30,984.7932129
11/28/2025 8:45,994.0095825
11/28/2025 9:00,1041.570801
11/28/2025 9:15,948.4238281
11/28/2025 9:30,908.9250488
11/28/2025 9:45,1069.337524
11/28/2025 10:00,1087.066162
11/28/2025 10:15,1097.378662
11/28/2025 10:30,1047.436035
11/28/2025 10:45,1131.611572
11/28/2025 11:00,1093.302246
11/28/2025 11:15,1124.59314
11/28/2025 11:30,986.8635864
11/28/2025 11:45,1142.850342
11/28/2025 12:00,1076.627319
11/28/2025 12:15,1143.230713
11/28/2025 12:30,1087.21936
11/28/2025 12:45,1158.785156
11/28/2025 13:00,1180.175415
11/28/2025 13:15,1178.383423
11/28/2025 13:30,1090.799805
11/28/2025 13:45,1106.295654
11/28/2025 14:00,1171.426147
11/28/2025 14:15,1118.791626
11/28/2025 14:30,1136.250244
11/28/2025 14:45,1158.261353
11/28/2025 15:00,1074.138184
11/28/2025 15:15,1211.446045
11/28/2025 15:30,1179.372437
11/28/2025 15:45,1139.644165
11/28/2025 16:00,1135.235962
11/28/2025 16:15,1254.356812
11/28/2025 16:30,1198.492065
11/28/2025 16:45,1246.250488
11/28/2025 17:00,1175.357178
11/28/2025 17:15,1237.334473
11/28/2025 17:30,1187.64624
11/28/2025 17:45,1188.406616
11/28/2025 18:00,1217.138306
11/28/2025 18:15,1212.178223
11/28/2025 18:30,1124.405273
11/28/2025 18:45,1211.557129
11/28/2025 19:00,1237.895752
11/28/2025 19:15,1178.070068
11/28/2025 19:30,1259.084595
11/28/2025 19:45,1183.636963
11/28/2025 20:00,1259.078003
11/28/2025 20:15,1227.736084
11/28/2025 20:30,1292.802979
11/28/2025 20:45,1291.839355
11/28/2025 21:00,1283.942139
11/28/2025 21:15,1325.842041
11/28/2025 21:30,1277.619873
11/28/2025 21:45,1237.838379
11/28/2025 22:00,1282.786621
11/28/2025 22:15,1288.794556
11/28/2025 22:30,1230.12793
11/28/2025 22:45,1327.333984
11/28/2025 23:00,1358.454834
11/28/2025 23:15,1308.715942
11/28/2025 23:30,1301.940918
11/28/2025 23:45,1271.602295
11/29/2025 0:00,1323.7229
11/29/2025 0:15,1364.938232
11/29/2025 0:30,1279.061768
11/29/2025 0:45,1325.975586
11/29/2025 1:00,1419.121216
11/29/2025 1:15,1362.176758
11/29/2025 1:30,1358.351074
11/29/2025 1:45,1369.623413
11/29/2025 2:00,1343.139282
11/29/2025 2:15,1366.103149
11/29/2025 2:30,1362.787231
11/29/2025 2:45,1393.0177
11/29/2025 3:00,1379.483887
11/29/2025 3:15,1375.7229
11/29/2025 3:30,1383.88208
11/29/2025 3:45,1394.985596
11/29/2025 4:00,1415.302734
11/29/2025 4:15,1429.055786
11/29/2025 4:30,1371.91626
11/29/2025 4:45,1424.261597
11/29/2025 5:00,1400.626587
11/29/2025 5:15,1334.072388
11/29/2025 5:30,1390.367676
11/29/2025 5:45,1462.87915
11/29/2025 6:00,1445.255981
11/29/2025 6:15,1442.474487
11/29/2025 6:30,1353.102051
11/29/2025 6:45,1411.293823
11/29/2025 7:00,1419.723267
11/29/2025 7:15,1449.890137
11/29/2025 7:30,1379.624512
11/29/2025 7:45,1430.759277
11/29/2025 8:00,1448.536011
11/29/2025 8:15,1448.567017
11/29/2025 8:30,1462.368164
11/29/2025 8:45,1401.625977
11/29/2025 9:00,1458.106079
11/29/2025 9:15,1513.343018
11/29/2025 9:30,1410.731689
11/29/2025 9:45,1470.511353
11/29/2025 10:00,1380.259033
11/29/2025 10:15,1460.12561
11/29/2025 10:30,1375.308838
11/29/2025 10:45,1523.07019
11/29/2025 11:00,1442.595337
11/29/2025 11:15,1378.358643
11/29/2025 11:30,1528.372559
11/29/2025 11:45,1468.724609
11/29/2025 12:00,1497.031128
11/29/2025 12:15,1468.320068
11/29/2025 12:30,1480.193604
11/29/2025 12:45,1439.903198
11/29/2025 13:00,1510.51123
11/29/2025 13:15,1539.413452
11/29/2025 13:30,1473.016235
11/29/2025 13:45,1560.646484
11/29/2025 14:00,1493.292969
11/29/2025 14:15,1544.516724
11/29/2025 14:30,1479.354492
11/29/2025 14:45,1518.749146
11/29/2025 15:00,1458.325195
11/29/2025 15:15,1573.074707
11/29/2025 15:30,1452.44104
11/29/2025 15:45,1566.954346
11/29/2025 16:00,1631.989258
11/29/2025 16:15,1563.149658
11/29/2025 16:30,1522.843262
11/29/2025 16:45,1548.321655
11/29/2025 17:00,1535.754639
11/29/2025 17:15,1577.482178
11/29/2025 17:30,1607.411377
11/29/2025 17:45,1544.997803
11/29/2025 18:00,1510.769409
11/29/2025 18:15,1559.382813
11/29/2025 18:30,1581.391968
11/29/2025 18:45,1571.027466
11/29/2025 19:00,1554.423706
11/29/2025 19:15,1560.661865
11/29/2025 19:30,1650.286987
11/29/2025 19:45,1566.624634
11/29/2025 20:00,1539.115967
11/29/2025 20:15,1620.096924
11/29/2025 20:30,1652.176758
11/29/2025 20:45,1563.654297
11/29/2025 21:00,1637.963013
11/29/2025 21:15,1633.36084
11/29/2025 21:30,1587.327271
11/29/2025 21:45,1635.038452
11/29/2025 22:00,1738.337158
11/29/2025 22:15,1657.596802
11/29/2025 22:30,1650.448608
11/29/2025 22:45,1680.86792
11/29/2025 23:00,1559.553223
11/29/2025 23:15,1592.908691
11/29/2025 23:30,1703.669678
11/29/2025 23:45,1698.745605
11/30/2025 0:00,1596.286377
11/30/2025 0:15,1717.152588
11/30/2025 0:30,1696.167603
11/30/2025 0:45,1770.64624
11/30/2025 1:00,1623.964966
11/30/2025 1:15,1654.258057
11/30/2025 1:30,1762.036621
11/30/2025 1:45,1727.048096
11/30/2025 2:00,1772.418335
11/30/2025 2:15,1765.587646
11/30/2025 2:30,1820.659668
11/30/2025 2:45,1754.335083
11/30/2025 3:00,1785.489868
11/30/2025 3:15,1762.035156
11/30/2025 3:30,1745.496826
11/30/2025 3:45,1883.98999
11/30/2025 4:00,1700.82019
11/30/2025 4:15,1781.914551
11/30/2025 4:30,1730.734863
11/30/2025 4:45,1835.425537
11/30/2025 5:00,1835.618652
11/30/2025 5:15,1810.129639
11/30/2025 5:30,1801.326416
11/30/2025 5:45,1895.068237
11/30/2025 6:00,1948.45874
11/30/2025 6:15,1767.032837
11/30/2025 6:30,1909.532227
11/30/2025 6:45,1877.720093
11/30/2025 7:00,1946.107056
11/30/2025 7:15,2035.820801
11/30/2025 7:30,1914.301025
11/30/2025 7:45,1921.741943
11/30/2025 8:00,1982.713135
11/30/2025 8:15,1988.541504
11/30/2025 8:30,1895.988281
11/30/2025 8:45,1918.22522
11/30/2025 9:00,1890.088379
11/30/2025 9:15,1909.032593
11/30/2025 9:30,1884.522095
11/30/2025 9:45,1948.034912
11/30/2025 10:00,1881.339966
11/30/2025 10:15,1926.530029
11/30/2025 10:30,1969.827271
11/30/2025 10:45,2008.522217
11/30/2025 11:00,1961.169922
11/30/2025 11:15,1790.612915
11/30/2025 11:30,1920.11145
11/30/2025 11:45,1982.720581
11/30/2025 12:00,1960.051147
11/30/2025 12:15,1997.87207
11/30/2025 12:30,1912.547485
11/30/2025 12:45,1941.456055
11/30/2025 13:00,2004.403564
11/30/2025 13:15,1965.590088
11/30/2025 13:30,1895.19751
11/30/2025 13:45,1940.393066
11/30/2025 14:00,1848.438477
11/30/2025 14:15,2004.652222
11/30/2025 14:30,1864.579102
11/30/2025 14:45,1919.358887
11/30/2025 15:00,1934.31897
11/30/2025 15:15,1931.443604
11/30/2025 15:30,1942.320679
11/30/2025 15:45,1940.756836
11/30/2025 16:00,1929.308716
11/30/2025 16:15,1920.116943
11/30/2025 16:30,1971.102051
11/30/2025 16:45,2052.80835
11/30/2025 17:00,2055.17334
11/30/2025 17:15,1851.484131
11/30/2025 17:30,1882.108887
11/30/2025 17:45,1903.538086
11/30/2025 18:00,1946.805298
11/30/2025 18:15,1964.654053
11/30/2025 18:30,1941.205566
11/30/2025 18:45,1940.061768
11/30/2025 19:00,1913.446533
11/30/2025 19:15,1907.428589
11/30/2025 19:30,1875.003662
11/30/2025 19:45,1992.624023
11/30/2025 20:00,1923.212646
11/30/2025 20:15,1895.783325
11/30/2025 20:30,1925.021606
11/30/2025 20:45,1863.331177
11/30/2025 21:00,1916.075806
11/30/2025 21:15,1858.30127
11/30/2025 21:30,1920.225464
11/30/2025 21:45,1917.774536
11/30/2025 22:00,1861.641479
11/30/2025 22:15,1922.210938
11/30/2025 22:30,1962.000732
11/30/2025 22:45,1947.421875
11/30/2025 23:00,1866.019775
11/30/2025 23:15,1907.401123
11/30/2025 23:30,1891.761841
11/30/2025 23:45,1950.348999
12/1/2025 0:00,1950.343994
12/1/2025 0:15,1916.305664
12/1/2025 0:30,1883.15979
12/1/2025 0:45,1948.142212
12/1/2025 1:00,1922.440063
12/1/2025 1:15,1924.049438
12/1/2025 1:30,1894.953613
12/1/2025 1:45,1957.775879
12/1/2025 2:00,1950.886963
12/1/2025 2:15,2014.906006
12/1/2025 2:30,1991.197388
12/1/2025 2:45,2043.352661
12/1/2025 3:00,1965.081299
12/1/2025 3:15,1956.243652
12/1/2025 3:30,2021.32251
12/1/2025 3:45,2016.780273
12/1/2025 4:00,1987.266357
12/1/2025 4:15,2133.734619
12/1/2025 4:30,2067.650879
12/1/2025 4:45,1986.428345
12/1/2025 5:00,2044.025269
12/1/2025 5:15,2086.169434
12/1/2025 5:30,2082.435059
12/1/2025 5:45,2028.066895
12/1/2025 6:00,2047.06958
12/1/2025 6:15,2078.065918
12/1/2025 6:30,2102.566895
12/1/2025 6:45,2084.026123
12/1/2025 7:00,2120.779297
12/1/2025 7:15,2164.442627
12/1/2025 7:30,2139.941162
12/1/2025 7:45,2243.982666
12/1/2025 8:00,2151.666016
12/1/2025 8:15,2146.850342
12/1/2025 8:30,2241.455078
12/1/2025 8:45,2124.480957
12/1/2025 9:00,2211.835449
12/1/2025 9:15,2092.550049
12/1/2025 9:30,2184.832275
12/1/2025 9:45,2264.885254
12/1/2025 10:00,2267.328613
12/1/2025 10:15,2264.212402
12/1/2025 10:30,2252.958984
12/1/2025 10:45,2279.37915
12/1/2025 11:00,2278.734863
12/1/2025 11:15,2235.61377
12/1/2025 11:30,2285.265625
12/1/2025 11:45,2300.143555
12/1/2025 12:00,2337.765137
12/1/2025 12:15,2275.852539
12/1/2025 12:30,2280.059082
12/1/2025 12:45,2247.515381
12/1/2025 13:00,2326.504395
12/1/2025 13:15,2347.833008
12/1/2025 13:30,2310.060059
12/1/2025 13:45,2331.387695
12/1/2025 14:00,2324.431152
12/1/2025 14:15,2306.244141
12/1/2025 14:30,2223.533447
12/1/2025 14:45,2294.072754
12/1/2025 15:00,2310.609131
12/1/2025 15:15,2315.970703
12/1/2025 15:30,2322.094727
12/1/2025 15:45,2247.813721
12/1/2025 16:00,2203.171387
12/1/2025 16:15,2303.563965
12/1/2025 16:30,2260.359375
12/1/2025 16:45,2312.807617
12/1/2025 17:00,2397.651611
12/1/2025 17:15,2315.035889
12/1/2025 17:30,2365.789063
12/1/2025 17:45,2294.988281
12/1/2025 18:00,2308.431641
12/1/2025 18:15,2325.448975
12/1/2025 18:30,2173.080566
12/1/2025 18:45,2354.652832
12/1/2025 19:00,2274.711426
12/1/2025 19:15,2277.301758
12/1/2025 19:30,2346.631348
12/1/2025 19:45,2383.778564
12/1/2025 20:00,2364.036865
12/1/2025 20:15,2340.625977
12/1/2025 20:30,2474.395508
12/1/2025 20:45,2328.071289
12/1/2025 21:00,2322.328613
12/1/2025 21:15,2364.088379
12/1/2025 21:30,2297.239502
12/1/2025 21:45,2290.663818
12/1/2025 22:00,2349.717285
12/1/2025 22:15,2260.099609
12/1/2025 22:30,2320.42334
12/1/2025 22:45,2349.816162
12/1/2025 23:00,2322.017334
12/1/2025 23:15,2299.435059
12/1/2025 23:30,2370.817871
12/1/2025 23:45,2307.028076
12/2/2025 0:00,2367.536621
12/2/2025 0:15,2296.484863
12/2/2025 0:30,2305.98999
12/2/2025 0:45,2327.446289
12/2/2025 1:00,2317.492676
12/2/2025 1:15,2344.341797
12/2/2025 1:30,2293.620605
12/2/2025 1:45,2323.103271
12/2/2025 2:00,2326.605957
12/2/2025 2:15,2419.641602
12/2/2025 2:30,2392.822021
12/2/2025 2:45,2327.385742
12/2/2025 3:00,2322.870117
12/2/2025 3:15,2260.755127
12/2/2025 3:30,2347.965576
12/2/2025 3:45,2301.889893
12/2/2025 4:00,2421.368164
12/2/2025 4:15,2368.308594
12/2/2025 4:30,2409.346436
12/2/2025 4:45,2406.899414
12/2/2025 5:00,2406.041504
12/2/2025 5:15,2360.455078
12/2/2025 5:30,2407.932617
12/2/2025 5:45,2418.949219
12/2/2025 6:00,2301.669434
12/2/2025 6:15,2410.30957
12/2/2025 6:30,2293.598145
12/2/2025 6:45,2370.760986
12/2/2025 7:00,2427.984131
12/2/2025 7:15,2397.79126
12/2/2025 7:30,2433.833984
12/2/2025 7:45,2371.677246
12/2/2025 8:00,2422.286865
12/2/2025 8:15,2407.614502
12/2/2025 8:30,2338.062012
12/2/2025 8:45,2378.45166
12/2/2025 9:00,2394.780762
12/2/2025 9:15,2374.640137
12/2/2025 9:30,2454.938477
12/2/2025 9:45,2433.327148
12/2/2025 10:00,2408.052246
12/2/2025 10:15,2464.785156
12/2/2025 10:30,2446.648682
12/2/2025 10:45,2393.466309
12/2/2025 11:00,2363.082275
12/2/2025 11:15,2491.086426
12/2/2025 11:30,2446.511719
12/2/2025 11:45,2447.734863
12/2/2025 12:00,2427.135254
12/2/2025 12:15,2393.818848
12/2/2025 12:30,2446.889893
12/2/2025 12:45,2367.884277
12/2/2025 13:00,2386.801514
12/2/2025 13:15,2449.943359
12/2/2025 13:30,2394.355469
12/2/2025 13:45,2424.464844
12/2/2025 14:00,2463.777832
12/2/2025 14:15,2437.388428
12/2/2025 14:30,2461.702148
12/2/2025 14:45,2431.037842
12/2/2025 15:00,2353.413086
12/2/2025 15:15,2414.320313
12/2/2025 15:30,2465.49707
12/2/2025 15:45,2431.905273
12/2/2025 16:00,2478.592285
12/2/2025 16:15,2418.506592
12/2/2025 16:30,2460.966064
12/2/2025 16:45,2419.694824
12/2/2025 17:00,2313.862305
12/2/2025 17:15,2421.960938
12/2/2025 17:30,2422.175781
12/2/2025 17:45,2490.753418
12/2/2025 18:00,2428.445801
12/2/2025 18:15,2493.51709
12/2/2025 18:30,2346.616211
12/2/2025 18:45,2335.469482
12/2/2025 19:00,2324.099854
12/2/2025 19:15,2347.259521
12/2/2025 19:30,2349.127441
12/2/2025 19:45,2400.185791
12/2/2025 20:00,2374.924072
12/2/2025 20:15,2398.607666
12/2/2025 20:30,2419.867432
12/2/2025 20:45,2489.473145
12/2/2025 21:00,2400.378174
12/2/2025 21:15,2336.081055
12/2/2025 21:30,2309.450439
12/2/2025 21:45,2417.726074
12/2/2025 22:00,2524.817627
12/2/2025 22:15,2462.231934
12/2/2025 22:30,2386.175781
12/2/2025 22:45,2352.216064
12/2/2025 23:00,2361.995605
12/2/2025 23:15,2397.37207
12/2/2025 23:30,2444.731689
12/2/2025 23:45,2457.790771
12/3/2025 0:00,2454.358887
12/3/2025 0:15,2461.350586
12/3/2025 0:30,2375.840332
12/3/2025 0:45,2510.132568
12/3/2025 1:00,2400.663086
12/3/2025 1:15,2429.276123
12/3/2025 1:30,2407.438965
12/3/2025 1:45,2340.144531
12/3/2025 2:00,2511.859619
12/3/2025 2:15,2436.906982
12/3/2025 2:30,2459.192871
12/3/2025 2:45,2407.42749
12/3/2025 3:00,2396.083496
12/3/2025 3:15,2448.718994
12/3/2025 3:30,2453.911865
12/3/2025 3:45,2422.188232
12/3/2025 4:00,2440.049805
12/3/2025 4:15,2439.167969
12/3/2025 4:30,2446.792725
12/3/2025 4:45,2494.088867
12/3/2025 5:00,2413.325928
12/3/2025 5:15,2370.066406
12/3/2025 5:30,2444.856445
12/3/2025 5:45,2429.224609
12/3/2025 6:00,2512.052002
12/3/2025 6:15,2429.161377
12/3/2025 6:30,2434.440186
12/3/2025 6:45,2536.602295
12/3/2025 7:00,2434.362305
12/3/2025 7:15,2500.980225
12/3/2025 7:30,2517.271484
12/3/2025 7:45,2445.086426
12/3/2025 8:00,2472.530518
12/3/2025 8:15,2467.185059
12/3/2025 8:30,2595.622314
12/3/2025 8:45,2496.693359
12/3/2025 9:00,2543.286133
12/3/2025 9:15,2527.47583
12/3/2025 9:30,2569.487305
12/3/2025 9:45,2486.283691
12/3/2025 10:00,2502.666992
12/3/2025 10:15,2482.072266
12/3/2025 10:30,2486.802002
12/3/2025 10:45,2527.069824
12/3/2025 11:00,2558.70166
12/3/2025 11:15,2518.432617
12/3/2025 11:30,2520.591064
12/3/2025 11:45,2473.000977
12/3/2025 12:00,2447.063721
12/3/2025 12:15,2519.314453
12/3/2025 12:30,2444.765137
12/3/2025 12:45,2485.342285
12/3/2025 13:00,2571.732422
12/3/2025 13:15,2546.889648
12/3/2025 13:30,2462.194336
12/3/2025 13:45,2566.76123
12/3/2025 14:00,2676.263672
12/3/2025 14:15,2564.831055
12/3/2025 14:30,2554.638428
12/3/2025 14:45,2644.490723
12/3/2025 15:00,2523.356934
12/3/2025 15:15,2618.695801
12/3/2025 15:30,2576.427246
12/3/2025 15:45,2631.352539
12/3/2025 16:00,2627.70752
12/3/2025 16:15,2662.672852
12/3/2025 16:30,2713.53418
12/3/2025 16:45,2630.558105
12/3/2025 17:00,2598.550537
12/3/2025 17:15,2698.724609
12/3/2025 17:30,2594.834961
12/3/2025 17:45,2597.678711
12/3/2025 18:00,2554.79541
12/3/2025 18:15,2592.993164
12/3/2025 18:30,2644.312744
12/3/2025 18:45,2571.885254
12/3/2025 19:00,2645.195313
12/3/2025 19:15,2662.572021
12/3/2025 19:30,2665.660889
12/3/2025 19:45,2621.174316
12/3/2025 20:00,2668.992188
12/3/2025 20:15,2757.569092
12/3/2025 20:30,2669.630615
12/3/2025 20:45,2553.101074
12/3/2025 21:00,2651.812256
12/3/2025 21:15,2553.060059
12/3/2025 21:30,2763.017578
12/3/2025 21:45,2647.297363
12/3/2025 22:00,2642.548828
12/3/2025 22:15,2761.171631
12/3/2025 22:30,2667.777344
12/3/2025 22:45,2639.11377
12/3/2025 23:00,2645.21582
12/3/2025 23:15,2658.488525
12/3/2025 23:30,2585.233643
12/3/2025 23:45,2627.102051
12/4/2025 0:00,2658.316162
12/4/2025 0:15,2661.546875
12/4/2025 0:30,2677.907959
12/4/2025 0:45,2707.39502
12/4/2025 1:00,2695.421875
12/4/2025 1:15,2788.926758
12/4/2025 1:30,2717.81665
12/4/2025 1:45,2658.005371
12/4/2025 2:00,2754.959229
12/4/2025 2:15,2727.437012
12/4/2025 2:30,2750.582275
12/4/2025 2:45,2843.472656
12/4/2025 3:00,2757.27832
12/4/2025 3:15,2731.611572
12/4/2025 3:30,2818.307129
12/4/2025 3:45,2822.123047
12/4/2025 4:00,2808.158691
12/4/2025 4:15,2847.401367
12/4/2025 4:30,2763.129395
12/4/2025 4:45,2736.12207
12/4/2025 5:00,2795.93457
12/4/2025 5:15,2775.159668
12/4/2025 5:30,2696.652344
12/4/2025 5:45,2754.829102
12/4/2025 6:00,2761.31543
12/4/2025 6:15,2842.246582
12/4/2025 6:30,2769.477051
12/4/2025 6:45,2902.96582
12/4/2025 7:00,2772.72876
12/4/2025 7:15,2937.093506
12/4/2025 7:30,2923.958496
12/4/2025 7:45,2717.875488
12/4/2025 8:00,2869.410156
12/4/2025 8:15,2875.450684
12/4/2025 8:30,2892.821289
12/4/2025 8:45,2870.712891
12/4/2025 9:00,2908.516602
12/4/2025 9:15,2899.164551
12/4/2025 9:30,2902.710938
12/4/2025 9:45,2947.828613
12/4/2025 10:00,2884.220215
12/4/2025 10:15,2918.165283
12/4/2025 10:30,3016.527832
12/4/2025 10:45,2918.823242
12/4/2025 11:00,2946.966309
12/4/2025 11:15,2909.579834
12/4/2025 11:30,2963.47998
12/4/2025 11:45,2991.965332
12/4/2025 12:00,3042.899902
12/4/2025 12:15,2967.208496
12/4/2025 12:30,2932.192871
12/4/2025 12:45,3117.948242
12/4/2025 13:00,3013.249023
12/4/2025 13:15,2893.080078
12/4/2025 13:30,3043.783691
12/4/2025 13:45,3042.82373
12/4/2025 14:00,3014.311523
12/4/2025 14:15,2900.341797
12/4/2025 14:30,2919.796875
12/4/2025 14:45,2938.11377
12/4/2025 15:00,3054.328125
12/4/2025 15:15,2997.035645
12/4/2025 15:30,2910.047363
12/4/2025 15:45,2984.779053
12/4/2025 16:00,2966.625
12/4/2025 16:15,2931.192139
12/4/2025 16:30,2969.450684
12/4/2025 16:45,3003.071777
12/4/2025 17:00,2885.140137
12/4/2025 17:15,3067.387695
12/4/2025 17:30,3028.319824
12/4/2025 17:45,2923.969238
12/4/2025 18:00,2994.961914
12/4/2025 18:15,2979.629639
12/4/2025 18:30,2930.339111
12/4/2025 18:45,3016.472168
12/4/2025 19:00,2936.260742
12/4/2025 19:15,3101.831543
12/4/2025 19:30,2995.266357
12/4/2025 19:45,3027.61377
12/4/2025 20:00,3054.94165
12/4/2025 20:15,3012.883789
12/4/2025 20:30,3042.674561
12/4/2025 20:45,2974.114502
12/4/2025 21:00,3020.324707
12/4/2025 21:15,2929.889648
12/4/2025 21:30,2942.829346
12/4/2025 21:45,2971.739746
12/4/2025 22:00,2911.641602
12/4/2025 22:15,2959.905273
12/4/2025 22:30,2963.951172
12/4/2025 22:45,2960.166016
12/4/2025 23:00,2855.499268
12/4/2025 23:15,2909.74707
12/4/2025 23:30,2976.614746
12/4/2025 23:45,2958.133789
12/5/2025 0:00,2996.503174
12/5/2025 0:15,2968.255371
12/5/2025 0:30,2960.53833
12/5/2025 0:45,3075.94873
12/5/2025 1:00,2937.427734
12/5/2025 1:15,2984.070068
12/5/2025 1:30,2987.838623
12/5/2025 1:45,2981.528809
12/5/2025 2:00,2902.984619
12/5/2025 2:15,3002.775391
12/5/2025 2:30,3005.459473
12/5/2025 2:45,2864.86377
12/5/2025 3:00,2997.609375
12/5/2025 3:15,3020.205566
12/5/2025 3:30,2968.371094
12/5/2025 3:45,2962.193848
12/5/2025 4:00,3017.463867
12/5/2025 4:15,2891.661621
12/5/2025 4:30,2849.933838
12/5/2025 4:45,3024.268555
12/5/2025 5:00,2990.317627
12/5/2025 5:15,2929.467773
12/5/2025 5:30,2892.601563
12/5/2025 5:45,2990.864746
12/5/2025 6:00,2934.79248
12/5/2025 6:15,2976.121094
12/5/2025 6:30,2859.677734
12/5/2025 6:45,2978.832031
12/5/2025 7:00,2912.947754
12/5/2025 7:15,2927.724121
12/5/2025 7:30,2901.462891
12/5/2025 7:45,2947.833984
12/5/2025 8:00,2980.94043
